== Analysis Data ==
                                               Administrative information

Analysis performed on:                                                        2016/04/29
Analysis performed by:                                                        Ayupov
Comments:                                                                     Run with VectoreDose
Instrument:                                                                   Autosorb iQ S/N:14715112301 Station: 2
Instrument version:                                                           4.00.14111
Software version:                                                             n/a
 
                                                   Sample information

Id:                                                                           SARM 2005_2
Description:                                                                  Reference sample
Weight:                                                                       0.1114 g
 
                                                  Analysis information

Analysis gas:                                                                 Nitrogen
Cross Section Area:                                                           16.2 
Molecular weight:                                                             28.0134 
Non-ideality correction:                                                      6.58e-05 
Ambient temperature:                                                          300 K
== Data Reduction Parameters ==
                  Thermal Transpiration: off    Eff. mol. diameter (D): 3.54 Å      Eff. cell stem diam. (d): 4.0000 mm
t-Method          Calc. method: Halsey
Alpha-s method    Std. isotherm: _AALUM1        P / Po :          0.00
BJH/DH method     Moving pt. avg.: 3            Ignoring P-tags below 0.35 P/Po
DA Method         Incr. E:    500.000           Incr. n:          0.100             Interact. Const. (K): 2.960nm³ x kJ / mol
Adsorbate model   Nitrogen                      Temperature       77.350K
                  Molec. Wt.: 28.013            Cross Section:    16.200  Å²        Liquid Density:   0.806  g/cc
                  Contact Angle: 0.0  degrees   Surf. Tension:    8.850  erg/cm²
                  Critical Temp.: 126.200  K    Critical Press.:  33.500  atm       SuperCritic. K.:  1.000
                  Avg. Diameter:0.300  nm       Polarizability:   1.460  (cc/molec) x 10-24Magn. Suscept.:2.000
                  Molec. Density6.700  (mol/cm²)x1014
Adsorbent model   Oxygen/Zeolite
== Extended Outgas Data ==
                                               Outgas Temperature Profile
  
                  Target Temp. (deg)                      Rate (deg/min)                     Soak Time (min)
  
1.                              80.0                                 1.0                                  30
2.                              90.0                                 1.0                                  30
3.                             120.0                                 1.0                                  30
4.                             300.0                                 1.0                                 180
 
                          Pressure Controlled Heating:      Limit: 0.1 torr
 
                                                Empty Cell Weight:      17.5768 g
                                  Pre-outgas Weight (Cell+Sample):      17.6908 g
                                 Post-outgas Weight (Cell+Sample):      17.6882 g
== Isotherm ==


                          Relative                                                  Volume @ STP
                          Pressure                                                         
                                                                                        cc/g

                             4.59576e-05                                                 1.7941
                             6.97442e-05                                                 3.5971
                             1.04210e-04                                                 5.3937
                             1.74763e-04                                                 7.1837
                             3.15857e-04                                                 8.9609
                             6.49661e-04                                                10.6807
                             1.33238e-03                                                12.3154
                             2.40915e-03                                                13.8416
                             4.03948e-03                                                15.2331
                             6.33712e-03                                                16.4530
                             9.28663e-03                                                17.4986
                             1.28484e-02                                                18.4012
                             1.69399e-02                                                19.1754
                             2.14158e-02                                                19.8473
                             2.61802e-02                                                20.4360
                             3.12023e-02                                                20.9725
                             3.64398e-02                                                21.4484
                             4.18216e-02                                                21.9097
                             4.72314e-02                                                22.3311
                             5.27864e-02                                                22.7310
                             5.85497e-02                                                23.1115
                             6.43259e-02                                                23.4728
                             7.00680e-02                                                23.8163
                             7.60761e-02                                                24.1564
                             8.18484e-02                                                24.4838
                             8.79314e-02                                                24.8029
                             9.39964e-02                                                25.1215
                             9.99879e-02                                                25.4260
                             1.05945e-01                                                25.7214
                             1.11872e-01                                                26.0104
                             1.17796e-01                                                26.3006
                             1.24005e-01                                                26.5967
                             1.30765e-01                                                26.9126
                             1.37005e-01                                                27.2079
                             1.42894e-01                                                27.4697
                             1.48683e-01                                                27.7491
                             1.54525e-01                                                28.0059
                             1.60547e-01                                                28.2919
                             1.66532e-01                                                28.5512
                             1.72113e-01                                                28.8318
                             1.78134e-01                                                29.0912
                             1.84160e-01                                                29.3477
                             1.89928e-01                                                29.5993
                             1.95818e-01                                                29.8663
                             2.01741e-01                                                30.1279
                             2.07719e-01                                                30.3857
                             2.13462e-01                                                30.6710
                             2.19665e-01                                                30.9309
                             2.25473e-01                                                31.1800
                             2.31481e-01                                                31.4359
                             2.37310e-01                                                31.7087
                             2.43564e-01                                                31.9868
                             2.49670e-01                                                32.2427
                             2.55398e-01                                                32.5015
                             2.61009e-01                                                32.7615
                             2.66993e-01                                                33.0314
                             2.72725e-01                                                33.3369
                             2.78815e-01                                                33.5935
                             2.84640e-01                                                33.8501
                             2.90813e-01                                                34.1134
                             2.96853e-01                                                34.3639
                             3.02931e-01                                                34.6434
                             3.08774e-01                                                34.9606
                             3.14929e-01                                                35.2334
                             3.20145e-01                                                35.5204
                             3.26233e-01                                                35.7920
                             3.32328e-01                                                36.0619
                             3.38311e-01                                                36.3342
                             3.43623e-01                                                36.6736
                             3.49710e-01                                                36.9591
                             3.55581e-01                                                37.2332
                             3.61498e-01                                                37.5105
                             3.67495e-01                                                37.7846
                             3.73693e-01                                                38.0663
                             3.79332e-01                                                38.3385
                             3.84855e-01                                                38.6975
                             3.90777e-01                                                38.9939
                             3.96982e-01                                                39.2962
                             4.02770e-01                                                39.5736
                             4.08499e-01                                                39.8699
                             4.15105e-01                                                40.1625
                             4.20333e-01                                                40.4527
                             4.26614e-01                                                40.7480
                             4.31521e-01                                                41.1287
                             4.37116e-01                                                41.4265
                             4.43515e-01                                                41.7417
                             4.49357e-01                                                42.0500
                             4.55039e-01                                                42.3606
                             4.60580e-01                                                42.6692
                             4.66790e-01                                                42.9938
                             4.72800e-01                                                43.3084
                             4.77545e-01                                                43.7075
                             4.83476e-01                                                44.0640
                             4.89299e-01                                                44.3714
                             4.94448e-01                                                44.7178
                             5.00015e-01                                                45.0554
                             5.06403e-01                                                45.3979
                             5.11729e-01                                                45.7423
                             5.17619e-01                                                46.1010
                             5.23515e-01                                                46.4525
                             5.28277e-01                                                46.9238
                             5.34010e-01                                                47.2959
                             5.38941e-01                                                47.6601
                             5.45428e-01                                                48.0638
                             5.51235e-01                                                48.4471
                             5.56343e-01                                                48.8127
                             5.62496e-01                                                49.2141
                             5.67223e-01                                                49.6031
                             5.72129e-01                                                50.0960
                             5.77462e-01                                                50.5266
                             5.82730e-01                                                50.9310
                             5.88497e-01                                                51.3544
                             5.93266e-01                                                51.7803
                             5.98942e-01                                                52.1969
                             6.04670e-01                                                52.6538
                             6.10159e-01                                                53.1094
                             6.14808e-01                                                53.5480
                             6.19269e-01                                                54.1538
                             6.24803e-01                                                54.5973
                             6.29566e-01                                                55.0808
                             6.35037e-01                                                55.5722
                             6.39568e-01                                                56.0736
                             6.44769e-01                                                56.5679
                             6.50102e-01                                                57.0720
                             6.55175e-01                                                57.6015
                             6.59213e-01                                                58.1369
                             6.64038e-01                                                58.8619
                             6.69149e-01                                                59.3857
                             6.73310e-01                                                59.9545
                             6.77820e-01                                                60.5175
                             6.83265e-01                                                61.1266
                             6.87275e-01                                                61.7395
                             6.92258e-01                                                62.3713
                             6.96690e-01                                                63.0083
                             7.00383e-01                                                63.8068
                             7.05119e-01                                                64.4424
                             7.08518e-01                                                65.1103
                             7.13772e-01                                                65.7898
                             7.18197e-01                                                66.4910
                             7.21598e-01                                                67.2091
                             7.26659e-01                                                67.9431
                             7.28953e-01                                                68.9318
                             7.33257e-01                                                69.5949
                             7.37132e-01                                                70.3523
                             7.41528e-01                                                71.1627
                             7.45345e-01                                                71.9954
                             7.48590e-01                                                72.8241
                             7.53187e-01                                                73.6965
                             7.55730e-01                                                74.7599
                             7.59276e-01                                                75.5738
                             7.63128e-01                                                76.4665
                             7.65981e-01                                                77.3648
                             7.69436e-01                                                78.3172
                             7.73332e-01                                                79.2940
                             7.75912e-01                                                80.2907
                             7.78401e-01                                                81.4202
                             7.81259e-01                                                82.3339
                             7.84697e-01                                                83.3836
                             7.87474e-01                                                84.4423
                             7.90067e-01                                                85.5002
                             7.93135e-01                                                86.6128
                             7.94830e-01                                                87.9253
                             7.98389e-01                                                88.9019
                             8.00341e-01                                                90.0177
                             8.03020e-01                                                91.1877
                             8.05245e-01                                                92.3661
                             8.07783e-01                                                93.5633
                             8.09436e-01                                                94.9735
                             8.12526e-01                                                96.0045
                             8.14270e-01                                                97.2373
                             8.16874e-01                                                98.5084
                             8.19212e-01                                                99.7755
                             8.20418e-01                                               101.1929
                             8.22286e-01                                               102.4292
                             8.24796e-01                                               103.7032
                             8.26185e-01                                               105.0529
                             8.28712e-01                                               106.3725
                             8.30247e-01                                               107.7195
                             8.31000e-01                                               109.2050
                             8.33033e-01                                               110.4175
                             8.35342e-01                                               111.7516
                             8.36429e-01                                               113.1153
                             8.38269e-01                                               114.5845
                             8.40296e-01                                               115.9953
                             8.40659e-01                                               117.6123
                             8.42823e-01                                               118.8943
                             8.44315e-01                                               120.3058
                             8.45655e-01                                               121.7487
                             8.47505e-01                                               123.2308
                             8.48838e-01                                               124.6927
                             8.49531e-01                                               126.3583
                             8.51261e-01                                               127.7218
                             8.52995e-01                                               129.1783
                             8.54001e-01                                               130.6251
                             8.55494e-01                                               132.1122
                             8.57193e-01                                               133.6412
                             8.57160e-01                                               135.3083
                             8.59421e-01                                               136.6981
                             8.60597e-01                                               138.1555
                             8.61162e-01                                               139.6837
                             8.63429e-01                                               141.1570
                             8.64663e-01                                               142.7430
                             8.64454e-01                                               144.4795
                             8.66722e-01                                               145.7830
                             8.68675e-01                                               147.2777
                             8.68876e-01                                               148.8697
                             8.70070e-01                                               150.3175
                             8.71792e-01                                               152.0147
                             8.72731e-01                                               153.5835
                             8.73644e-01                                               155.2229
                             8.74871e-01                                               156.7332
                             8.76350e-01                                               158.2446
                             8.77608e-01                                               159.8278
                             8.78732e-01                                               161.3817
                             8.79683e-01                                               162.9465
                             8.81126e-01                                               164.5254
                             8.80906e-01                                               166.2261
                             8.82404e-01                                               167.7184
                             8.84042e-01                                               169.2662
                             8.85090e-01                                               170.7872
                             8.86202e-01                                               172.3233
                             8.87404e-01                                               173.9207
                             8.88220e-01                                               175.4112
                             8.89189e-01                                               176.9829
                             8.90518e-01                                               178.4732
                             8.91220e-01                                               179.9918
                             8.92511e-01                                               181.5045
                             8.93464e-01                                               183.0440
                             8.95066e-01                                               184.5134
                             8.95762e-01                                               186.0384
                             8.96201e-01                                               187.6167
                             8.97704e-01                                               189.0750
                             8.98790e-01                                               190.5649
                             9.00173e-01                                               192.0837
                             9.01324e-01                                               193.5880
                             9.02151e-01                                               195.0734
                             9.03473e-01                                               196.6166
                             9.03632e-01                                               198.2463
                             9.05465e-01                                               199.6382
                             9.06346e-01                                               201.1274
                             9.07984e-01                                               202.6043
                             9.08434e-01                                               204.1712
                             9.09192e-01                                               205.6746
                             9.10951e-01                                               207.2041
                             9.10308e-01                                               209.0339
                             9.13012e-01                                               210.2846
                             9.14090e-01                                               211.7569
                             9.14788e-01                                               213.2544
                             9.15731e-01                                               214.7906
                             9.17278e-01                                               216.2675
                             9.18423e-01                                               217.7945
                             9.19385e-01                                               219.2849
                             9.20382e-01                                               220.9418
                             9.20971e-01                                               222.3677
                             9.22787e-01                                               223.8527
                             9.23730e-01                                               225.3478
                             9.24817e-01                                               226.8313
                             9.26304e-01                                               228.3455
                             9.27696e-01                                               229.8432
                             9.28956e-01                                               231.3771
                             9.29659e-01                                               232.9568
                             9.30839e-01                                               234.4127
                             9.32408e-01                                               235.9173
                             9.33435e-01                                               237.3831
                             9.34580e-01                                               238.8734
                             9.36004e-01                                               240.3732
                             9.37470e-01                                               241.8543
                             9.39099e-01                                               243.3532
                             9.39950e-01                                               244.8742
                             9.41246e-01                                               246.2997
                             9.42926e-01                                               247.7829
                             9.43390e-01                                               249.2387
                             9.44763e-01                                               250.6961
                             9.46959e-01                                               252.1619
                             9.48185e-01                                               253.5680
                             9.49374e-01                                               255.0393
                             9.49030e-01                                               256.7083
                             9.51784e-01                                               257.9792
                             9.52606e-01                                               258.6639
                             9.53106e-01                                               259.4011
                             9.53607e-01                                               260.1149
                             9.54180e-01                                               260.7968
                             9.49859e-01                                               260.2529
                             9.46398e-01                                               259.3215
                             9.42636e-01                                               258.3941
                             9.39344e-01                                               257.4548
                             9.36020e-01                                               256.4965
                             9.32499e-01                                               255.5027
                             9.27762e-01                                               254.7499
                             9.26033e-01                                               253.5014
                             9.23535e-01                                               252.3549
                             9.20668e-01                                               251.1883
                             9.18368e-01                                               249.9341
                             9.16065e-01                                               248.6620
                             9.13694e-01                                               247.3744
                             9.11725e-01                                               246.0371
                             9.10167e-01                                               244.7178
                             9.08090e-01                                               243.4104
                             9.05495e-01                                               242.1601
                             9.03706e-01                                               240.7514
                             9.02118e-01                                               239.3098
                             9.00741e-01                                               237.9055
                             8.98406e-01                                               236.5107
                             8.97436e-01                                               235.1433
                             8.95484e-01                                               233.7282
                             8.93869e-01                                               232.3171
                             8.92297e-01                                               230.9152
                             8.90815e-01                                               229.5076
                             8.88706e-01                                               228.2252
                             8.87071e-01                                               226.7060
                             8.85641e-01                                               225.2921
                             8.83667e-01                                               223.8565
                             8.82306e-01                                               222.3933
                             8.81177e-01                                               220.9436
                             8.79047e-01                                               219.5114
                             8.78653e-01                                               218.0698
                             8.76936e-01                                               216.6174
                             8.73519e-01                                               215.4715
                             8.73362e-01                                               213.7409
                             8.72387e-01                                               212.2826
                             8.70783e-01                                               210.8040
                             8.69046e-01                                               209.3585
                             8.67496e-01                                               207.8670
                             8.66369e-01                                               206.4247
                             8.64850e-01                                               204.9697
                             8.64143e-01                                               203.4992
                             8.62999e-01                                               201.9952
                             8.60750e-01                                               200.6518
                             8.59707e-01                                               199.1467
                             8.57964e-01                                               197.6315
                             8.56699e-01                                               196.2050
                             8.55532e-01                                               194.7404
                             8.54917e-01                                               193.2408
                             8.53672e-01                                               191.7546
                             8.52597e-01                                               190.2723
                             8.51063e-01                                               188.8001
                             8.49187e-01                                               187.3985
                             8.47995e-01                                               185.9085
                             8.46621e-01                                               184.4504
                             8.45246e-01                                               182.9362
                             8.43733e-01                                               181.4830
                             8.42623e-01                                               179.9691
                             8.41262e-01                                               178.4994
                             8.40285e-01                                               177.0358
                             8.38931e-01                                               175.5189
                             8.36906e-01                                               174.0987
                             8.35900e-01                                               172.6200
                             8.34639e-01                                               171.1201
                             8.33013e-01                                               169.6523
                             8.31907e-01                                               168.2039
                             8.30722e-01                                               166.7535
                             8.29610e-01                                               165.2649
                             8.27569e-01                                               163.8234
                             8.26193e-01                                               162.3460
                             8.23728e-01                                               161.1059
                             8.23596e-01                                               159.5045
                             8.21754e-01                                               158.0689
                             8.20076e-01                                               156.5863
                             8.18810e-01                                               155.1484
                             8.17233e-01                                               153.6554
                             8.16402e-01                                               152.2151
                             8.14115e-01                                               150.7906
                             8.12932e-01                                               149.2924
                             8.11938e-01                                               147.8418
                             8.09749e-01                                               146.4871
                             8.08063e-01                                               144.9873
                             8.07212e-01                                               143.4879
                             8.05827e-01                                               142.0147
                             8.04061e-01                                               140.5612
                             8.03334e-01                                               139.0925
                             8.01840e-01                                               137.6013
                             8.01031e-01                                               136.1259
                             7.99715e-01                                               134.6279
                             7.97226e-01                                               133.3591
                             7.96217e-01                                               131.6485
                             7.95756e-01                                               130.1567
                             7.94353e-01                                               128.6577
                             7.92824e-01                                               127.0990
                             7.91835e-01                                               125.5712
                             7.90400e-01                                               124.0307
                             7.89721e-01                                               122.5263
                             7.88307e-01                                               120.9551
                             7.87027e-01                                               119.4549
                             7.85458e-01                                               117.9801
                             7.84583e-01                                               116.3998
                             7.83337e-01                                               114.9027
                             7.81667e-01                                               113.3597
                             7.79853e-01                                               111.8799
                             7.79177e-01                                               110.3707
                             7.77189e-01                                               108.8912
                             7.76395e-01                                               107.4208
                             7.75162e-01                                               105.9613
                             7.72856e-01                                               104.5405
                             7.71182e-01                                               103.0928
                             7.70254e-01                                               101.6468
                             7.67846e-01                                               100.2176
                             7.66308e-01                                                98.7936
                             7.64829e-01                                                97.4326
                             7.63144e-01                                                96.1075
                             7.61094e-01                                                94.7306
                             7.59143e-01                                                93.4417
                             7.57648e-01                                                92.1214
                             7.55241e-01                                                90.9433
                             7.52745e-01                                                89.5933
                             7.50492e-01                                                88.3546
                             7.48433e-01                                                87.0851
                             7.45933e-01                                                85.8776
                             7.43372e-01                                                84.6549
                             7.41319e-01                                                83.4789
                             7.38151e-01                                                82.3081
                             7.35494e-01                                                81.2071
                             7.32954e-01                                                80.1173
                             7.29366e-01                                                79.0232
                             7.26174e-01                                                78.0317
                             7.23051e-01                                                77.0491
                             7.19618e-01                                                76.0395
                             7.16587e-01                                                75.0608
                             7.12695e-01                                                74.1269
                             7.08966e-01                                                73.2072
                             7.05535e-01                                                72.3002
                             7.01469e-01                                                71.4481
                             6.98459e-01                                                70.5904
                             6.93976e-01                                                69.7744
                             6.89841e-01                                                68.9588
                             6.85895e-01                                                68.1841
                             6.81380e-01                                                67.3995
                             6.77717e-01                                                66.6434
                             6.72500e-01                                                65.9065
                             6.68543e-01                                                65.2091
                             6.62630e-01                                                64.6956
                             6.58069e-01                                                63.9546
                             6.53898e-01                                                63.3047
                             6.48744e-01                                                62.6462
                             6.43838e-01                                                62.0356
                             6.39702e-01                                                61.4088
                             6.34866e-01                                                60.8155
                             6.29372e-01                                                60.2415
                             6.24666e-01                                                59.6820
                             6.19146e-01                                                59.1178
                             6.14714e-01                                                58.5708
                             6.09272e-01                                                58.0409
                             6.04426e-01                                                57.5019
                             5.98980e-01                                                56.9688
                             5.94152e-01                                                56.4671
                             5.88460e-01                                                55.9488
                             5.83273e-01                                                55.4571
                             5.77996e-01                                                54.9854
                             5.72482e-01                                                54.5058
                             5.66996e-01                                                54.0343
                             5.61700e-01                                                53.5641
                             5.56131e-01                                                53.1611
                             5.49978e-01                                                52.7899
                             5.44468e-01                                                52.3490
                             5.39373e-01                                                51.9045
                             5.33478e-01                                                51.4807
                             5.28232e-01                                                51.0407
                             5.22405e-01                                                50.6259
                             5.16971e-01                                                50.1996
                             5.11029e-01                                                49.7799
                             5.05612e-01                                                49.3772
                             4.99732e-01                                                48.9738
                             4.94503e-01                                                48.5721
                             4.88435e-01                                                48.1605
                             4.82807e-01                                                47.7582
                             4.77191e-01                                                47.3762
                             4.71562e-01                                                46.9849
                             4.65952e-01                                                46.6051
                             4.60059e-01                                                46.2171
                             4.54500e-01                                                45.8383
                             4.48373e-01                                                45.4536
                             4.42886e-01                                                45.0807
                             4.36720e-01                                                44.6984
                             4.30842e-01                                                44.3311
                             4.25319e-01                                                43.9713
                             4.19292e-01                                                43.6035
                             4.13422e-01                                                43.2397
                             4.07548e-01                                                42.8769
                             4.01178e-01                                                42.5912
                             3.95489e-01                                                42.2500
                             3.89860e-01                                                41.9047
                             3.83705e-01                                                41.5495
                             3.77933e-01                                                41.2046
                             3.71713e-01                                                40.8480
                             3.65928e-01                                                40.5012
                             3.60021e-01                                                40.1522
                             3.54071e-01                                                39.8063
                             3.48395e-01                                                39.4712
                             3.42511e-01                                                39.1362
                             3.36349e-01                                                38.7917
                             3.30603e-01                                                38.4551
                             3.24619e-01                                                38.1170
                             3.18551e-01                                                37.7799
                             3.12699e-01                                                37.4394
                             3.06685e-01                                                37.1072
                             3.00591e-01                                                36.7752
                             2.94759e-01                                                36.4379
                             2.88754e-01                                                36.1011
                             2.82587e-01                                                35.7724
                             2.76659e-01                                                35.4446
                             2.70735e-01                                                35.1116
                             2.64533e-01                                                34.7865
                             2.58610e-01                                                34.4569
                             2.52750e-01                                                34.1222
                             2.46441e-01                                                33.8045
                             2.40644e-01                                                33.4730
                             2.34228e-01                                                33.1447
                             2.28122e-01                                                32.8430
                             2.21809e-01                                                32.5371
                             2.15712e-01                                                32.2178
                             2.09647e-01                                                31.8844
                             2.03594e-01                                                31.5648
                             1.97517e-01                                                31.2367
                             1.91550e-01                                                30.9126
                             1.85488e-01                                                30.5783
                             1.79396e-01                                                30.2520
                             1.73278e-01                                                29.9227
                             1.67242e-01                                                29.5962
                             1.61189e-01                                                29.2618
                             1.55045e-01                                                28.9307
                             1.49264e-01                                                28.6086
                             1.43445e-01                                                28.2831
                             1.37453e-01                                                27.9505
                             1.31447e-01                                                27.6115
                             1.25465e-01                                                27.2747
                             1.19510e-01                                                26.9345
                             1.13437e-01                                                26.5785
                             1.07776e-01                                                26.2508
                             1.01913e-01                                                25.8999
                             9.60018e-02                                                25.5441
                             9.01806e-02                                                25.1849
                             8.43220e-02                                                24.8132
                             7.85412e-02                                                24.4383
                             7.29044e-02                                                24.0668
                             6.72802e-02                                                23.6757
                             6.16487e-02                                                23.2745
                             5.61182e-02                                                22.8570
                             5.06019e-02                                                22.4326
                             4.52593e-02                                                21.9849
== Absolute Isotherm ==


                          Pressure                                                  Volume @ STP
                                                                                           
                            Torr                                                        cc/g

                             0.0354                                                      1.7941
                             0.0531                                                      3.5971
                             0.0792                                                      5.3937
                             0.1328                                                      7.1837
                             0.2402                                                      8.9609
                             0.4941                                                     10.6807
                             1.0133                                                     12.3154
                             1.8328                                                     13.8416
                             3.0724                                                     15.2331
                             4.8387                                                     16.4530
                             7.1041                                                     17.4986
                             9.8521                                                     18.4012
                            13.0127                                                     19.1754
                            16.4737                                                     19.8473
                            20.1656                                                     20.4360
                            24.0340                                                     20.9725
                            28.0682                                                     21.4484
                            32.1709                                                     21.9097
                            36.3778                                                     22.3311
                            40.6594                                                     22.7310
                            45.0898                                                     23.1115
                            49.5326                                                     23.4728
                            53.9618                                                     23.8163
                            58.5417                                                     24.1564
                            63.0447                                                     24.4838
                            67.7206                                                     24.8029
                            72.4019                                                     25.1215
                            76.9833                                                     25.4260
                            81.6058                                                     25.7214
                            86.1707                                                     26.0104
                            90.6936                                                     26.3006
                            95.5164                                                     26.5967
                           100.6496                                                     26.9126
                           105.5035                                                     27.2079
                           110.0202                                                     27.4697
                           114.4685                                                     27.7491
                           118.9841                                                     28.0059
                           123.4251                                                     28.2919
                           127.9289                                                     28.5512
                           132.3741                                                     28.8318
                           136.8712                                                     29.0912
                           141.4057                                                     29.3477
                           145.9399                                                     29.5993
                           150.4204                                                     29.8663
                           154.9750                                                     30.1279
                           159.5470                                                     30.3857
                           163.9845                                                     30.6710
                           168.5740                                                     30.9309
                           173.1147                                                     31.1800
                           177.6664                                                     31.4359
                           182.2028                                                     31.7087
                           186.6936                                                     31.9868
                           191.2704                                                     32.2427
                           195.8166                                                     32.5015
                           200.3866                                                     32.7615
                           204.9078                                                     33.0314
                           209.3334                                                     33.3369
                           213.8830                                                     33.5935
                           218.4231                                                     33.8501
                           222.9543                                                     34.1134
                           227.5194                                                     34.3639
                           232.0308                                                     34.6434
                           236.4212                                                     34.9606
                           240.9605                                                     35.2334
                           245.4089                                                     35.5204
                           249.9278                                                     35.7920
                           254.4636                                                     36.0619
                           258.9591                                                     36.3342
                           263.2793                                                     36.6736
                           267.7554                                                     36.9591
                           272.2528                                                     37.2332
                           276.7954                                                     37.5105
                           281.2963                                                     37.7846
                           285.7964                                                     38.0663
                           290.2854                                                     38.3385
                           294.5631                                                     38.6975
                           299.0227                                                     38.9939
                           303.4745                                                     39.2962
                           307.9545                                                     39.5736
                           312.3971                                                     39.8699
                           316.8671                                                     40.1625
                           321.2981                                                     40.4527
                           325.7434                                                     40.7480
                           329.9443                                                     41.1287
                           334.3684                                                     41.4265
                           338.7820                                                     41.7417
                           343.2216                                                     42.0500
                           347.6378                                                     42.3606
                           352.0407                                                     42.6692
                           356.3927                                                     42.9938
                           360.7480                                                     43.3084
                           364.9012                                                     43.7075
                           369.1518                                                     44.0640
                           373.4941                                                     44.3714
                           377.7876                                                     44.7178
                           382.0639                                                     45.0554
                           386.3762                                                     45.3979
                           390.6729                                                     45.7423
                           394.9136                                                     46.1010
                           399.2205                                                     46.4525
                           403.0995                                                     46.9238
                           407.2999                                                     47.2959
                           411.5366                                                     47.6601
                           415.6517                                                     48.0638
                           419.7974                                                     48.4471
                           424.0188                                                     48.8127
                           428.1760                                                     49.2141
                           432.3078                                                     49.6031
                           436.1450                                                     50.0960
                           440.1467                                                     50.5266
                           444.2429                                                     50.9310
                           448.2795                                                     51.3544
                           452.3169                                                     51.7803
                           456.3661                                                     52.1969
                           460.3542                                                     52.6538
                           464.3146                                                     53.1094
                           468.3005                                                     53.5480
                           471.7919                                                     54.1538
                           475.7405                                                     54.5973
                           479.6427                                                     55.0808
                           483.4867                                                     55.5722
                           487.3140                                                     56.0736
                           491.1604                                                     56.5679
                           494.8985                                                     57.0720
                           498.6440                                                     57.6015
                           502.3231                                                     58.1369
                           505.4703                                                     58.8619
                           509.2306                                                     59.3857
                           512.8460                                                     59.9545
                           516.4850                                                     60.5175
                           519.9420                                                     61.1266
                           523.4524                                                     61.7395
                           526.9199                                                     62.3713
                           530.2998                                                     63.0083
                           533.2039                                                     63.8068
                           536.5968                                                     64.4424
                           539.9044                                                     65.1103
                           543.1119                                                     65.7898
                           546.3027                                                     66.4910
                           549.4414                                                     67.2091
                           552.5204                                                     67.9431
                           554.8975                                                     68.9318
                           558.2042                                                     69.5949
                           561.1787                                                     70.3523
                           564.0674                                                     71.1627
                           566.8537                                                     71.9954
                           569.6479                                                     72.8241
                           572.3620                                                     73.6965
                           574.4818                                                     74.7599
                           577.3346                                                     75.5738
                           579.9562                                                     76.4665
                           582.5461                                                     77.3648
                           585.0602                                                     78.3172
                           587.4642                                                     79.2940
                           589.7846                                                     80.2907
                           591.7383                                                     81.4202
                           594.2893                                                     82.3339
                           596.4404                                                     83.3836
                           598.6264                                                     84.4423
                           600.7703                                                     85.5002
                           602.7457                                                     86.6128
                           604.1371                                                     87.9253
                           606.5828                                                     88.9019
                           608.5610                                                     90.0177
                           610.3904                                                     91.1877
                           612.1916                                                     92.3661
                           613.9382                                                     93.5633
                           615.0811                                                     94.9735
                           617.3331                                                     96.0045
                           618.9808                                                     97.2373
                           620.5023                                                     98.5084
                           622.0957                                                     99.7755
                           623.2192                                                    101.1929
                           624.9084                                                    102.4292
                           626.5023                                                    103.7032
                           627.8456                                                    105.0529
                           629.2160                                                    106.3725
                           630.5523                                                    107.7195
                           631.5331                                                    109.2050
                           633.3213                                                    110.4175
                           634.7249                                                    111.7516
                           636.0695                                                    113.1153
                           637.1066                                                    114.5845
                           638.2468                                                    115.9953
                           638.8125                                                    117.6123
                           640.3212                                                    118.8943
                           641.5062                                                    120.3058
                           642.5721                                                    121.7487
                           643.5738                                                    123.2308
                           644.6408                                                    124.6927
                           645.0414                                                    126.3583
                           646.4100                                                    127.7218
                           647.4101                                                    129.1783
                           648.4031                                                    130.6251
                           649.3274                                                    132.1122
                           650.1159                                                    133.6412
                           650.5387                                                    135.3083
                           651.7929                                                    136.6981
                           652.7937                                                    138.1555
                           653.6493                                                    139.6837
                           654.6184                                                    141.1570
                           655.3096                                                    142.7430
                           655.5802                                                    144.4795
                           657.1303                                                    145.7830
                           658.0839                                                    147.2777
                           658.7860                                                    148.8697
                           659.8554                                                    150.3175
                           660.3231                                                    152.0147
                           661.0899                                                    153.5835
                           661.6365                                                    155.2229
                           662.5716                                                    156.7332
                           663.5300                                                    158.2446
                           664.2714                                                    159.8278
                           665.0825                                                    161.3817
                           665.9170                                                    162.9465
                           666.7177                                                    164.5254
                           667.1371                                                    166.2261
                           668.1252                                                    167.7184
                           668.9285                                                    169.2662
                           669.7203                                                    170.7872
                           670.5105                                                    172.3233
                           671.1416                                                    173.9207
                           671.9873                                                    175.4112
                           672.6350                                                    176.9829
                           673.5001                                                    178.4732
                           674.2445                                                    179.9918
                           675.0253                                                    181.5045
                           675.7061                                                    183.0440
                           676.6317                                                    184.5134
                           677.3889                                                    186.0384
                           677.9390                                                    187.6167
                           678.8646                                                    189.0750
                           679.7365                                                    190.5649
                           680.5114                                                    192.0837
                           681.3328                                                    193.5880
                           682.1888                                                    195.0734
                           682.8995                                                    196.6166
                           683.3779                                                    198.2463
                           684.5083                                                    199.6382
                           685.3820                                                    201.1274
                           686.2831                                                    202.6043
                           686.9475                                                    204.1712
                           687.7822                                                    205.6746
                           688.5964                                                    207.2041
                           688.4788                                                    209.0339
                           690.0707                                                    210.2846
                           690.9672                                                    211.7569
                           691.8449                                                    213.2544
                           692.6316                                                    214.7906
                           693.5167                                                    216.2675
                           694.3028                                                    217.7945
                           695.1646                                                    219.2849
                           695.5676                                                    220.9418
                           696.6936                                                    222.3677
                           697.5569                                                    223.8527
                           698.4341                                                    225.3478
                           699.2928                                                    226.8313
                           700.1419                                                    228.3455
                           701.0013                                                    229.8432
                           701.7275                                                    231.3771
                           702.3151                                                    232.9568
                           703.2957                                                    234.4127
                           704.1637                                                    235.9173
                           705.1229                                                    237.3831
                           705.9891                                                    238.8734
                           706.8478                                                    240.3732
                           707.7599                                                    241.8543
                           708.6478                                                    243.3532
                           709.4719                                                    244.8742
                           710.5175                                                    246.2997
                           711.4145                                                    247.7829
                           712.3670                                                    249.2387
                           713.3061                                                    250.6961
                           714.2305                                                    252.1619
                           715.3137                                                    253.5680
                           716.2566                                                    255.0393
                           716.5993                                                    256.7083
                           718.1177                                                    257.9792
                           718.7428                                                    258.6639
                           719.2131                                                    259.4011
                           719.7057                                                    260.1149
                           720.3297                                                    260.7968
                           716.5304                                                    260.2529
                           713.8833                                                    259.3215
                           711.1889                                                    258.3941
                           708.5369                                                    257.4548
                           705.9521                                                    256.4965
                           703.4406                                                    255.5027
                           700.2582                                                    254.7499
                           698.4994                                                    253.5014
                           696.4339                                                    252.3549
                           694.4805                                                    251.1883
                           692.7368                                                    249.9341
                           691.0421                                                    248.6620
                           689.4256                                                    247.3744
                           687.9442                                                    246.0371
                           686.4507                                                    244.7178
                           684.8713                                                    243.4104
                           683.1136                                                    242.1601
                           681.8777                                                    240.7514
                           680.6869                                                    239.3098
                           679.4225                                                    237.9055
                           678.1425                                                    236.5107
                           676.7441                                                    235.1433
                           675.4862                                                    233.7282
                           674.2298                                                    232.3171
                           672.9255                                                    230.9152
                           671.6879                                                    229.5076
                           670.0602                                                    228.2252
                           669.1349                                                    226.7060
                           667.9055                                                    225.2921
                           666.7364                                                    223.8565
                           665.6215                                                    222.3933
                           664.4765                                                    220.9436
                           663.2735                                                    219.5114
                           662.1201                                                    218.0698
                           660.9935                                                    216.6174
                           658.9398                                                    215.4715
                           658.6194                                                    213.7409
                           657.5274                                                    212.2826
                           656.5018                                                    210.8040
                           655.3432                                                    209.3585
                           654.4012                                                    207.8670
                           653.2966                                                    206.4247
                           652.2373                                                    204.9697
                           651.1593                                                    203.4992
                           650.1933                                                    201.9952
                           648.7718                                                    200.6518
                           647.7907                                                    199.1467
                           646.8820                                                    197.6315
                           645.6503                                                    196.2050
                           644.5825                                                    194.7404
                           643.6086                                                    193.2408
                           642.6268                                                    191.7546
                           641.6777                                                    190.2723
                           640.6065                                                    188.8001
                           639.4215                                                    187.3985
                           638.4262                                                    185.9085
                           637.3794                                                    184.4504
                           636.4707                                                    182.9362
                           635.4071                                                    181.4830
                           634.5027                                                    179.9691
                           633.4727                                                    178.4994
                           632.3935                                                    177.0358
                           631.5162                                                    175.5189
                           630.3117                                                    174.0987
                           629.2627                                                    172.6200
                           628.2725                                                    171.1201
                           627.2110                                                    169.6523
                           626.1418                                                    168.2039
                           625.0509                                                    166.7535
                           624.0671                                                    165.2649
                           622.9314                                                    163.8234
                           621.9192                                                    162.3460
                           620.1520                                                    161.1059
                           619.5043                                                    159.5045
                           618.3611                                                    158.0689
                           617.3053                                                    156.5863
                           616.1402                                                    155.1484
                           615.1284                                                    153.6554
                           613.9678                                                    152.2151
                           612.7435                                                    150.7906
                           611.7860                                                    149.2924
                           610.6764                                                    147.8418
                           609.2628                                                    146.4871
                           608.3036                                                    144.9873
                           607.3135                                                    143.4879
                           606.2249                                                    142.0147
                           605.1047                                                    140.5612
                           604.0035                                                    139.0925
                           603.0141                                                    137.6013
                           602.0024                                                    136.1259
                           601.0022                                                    134.6279
                           599.3626                                                    133.3591
                           599.0220                                                    131.6485
                           598.0227                                                    130.1567
                           597.0054                                                    128.6577
                           596.1850                                                    127.0990
                           595.2959                                                    125.5712
                           594.3757                                                    124.0307
                           593.4054                                                    122.5263
                           592.5962                                                    120.9551
                           591.5903                                                    119.4549
                           590.5027                                                    117.9801
                           589.7084                                                    116.3998
                           588.6600                                                    114.9027
                           587.7816                                                    113.3597
                           586.7135                                                    111.8799
                           585.7241                                                    110.3707
                           584.6523                                                    108.8912
                           583.5869                                                    107.4208
                           582.4117                                                    105.9613
                           581.1322                                                    104.5405
                           579.9620                                                    103.0928
                           578.8051                                                    101.6468
                           577.6030                                                    100.2176
                           576.3693                                                     98.7936
                           574.9592                                                     97.4326
                           573.4405                                                     96.1075
                           572.0889                                                     94.7306
                           570.4390                                                     93.4417
                           568.9248                                                     92.1214
                           566.9364                                                     90.9433
                           565.5097                                                     89.5933
                           563.7378                                                     88.3546
                           562.0096                                                     87.0851
                           560.1451                                                     85.8776
                           558.3003                                                     84.6549
                           556.3232                                                     83.4789
                           554.3253                                                     82.3081
                           552.1501                                                     81.2071
                           549.8659                                                     80.1173
                           547.6644                                                     79.0232
                           545.1412                                                     78.0317
                           542.6024                                                     77.0491
                           540.1458                                                     76.0395
                           537.5759                                                     75.0608
                           534.9102                                                     74.1269
                           532.1805                                                     73.2072
                           529.4259                                                     72.3002
                           526.4987                                                     71.4481
                           523.5961                                                     70.5904
                           520.5347                                                     69.7744
                           517.5131                                                     68.9588
                           514.3411                                                     68.1841
                           511.2128                                                     67.3995
                           508.0307                                                     66.6434
                           504.7718                                                     65.9065
                           501.4215                                                     65.2091
                           497.5101                                                     64.6956
                           494.2136                                                     63.9546
                           490.6824                                                     63.3047
                           487.1577                                                     62.6462
                           483.5142                                                     62.0356
                           479.9183                                                     61.4088
                           476.2138                                                     60.8155
                           472.4982                                                     60.2415
                           468.6968                                                     59.6820
                           464.9070                                                     59.1178
                           461.0796                                                     58.5708
                           457.2049                                                     58.0409
                           453.3506                                                     57.5019
                           449.4531                                                     56.9688
                           445.4948                                                     56.4671
                           441.5191                                                     55.9488
                           437.5867                                                     55.4571
                           433.5459                                                     54.9854
                           429.5292                                                     54.5058
                           425.4904                                                     54.0343
                           421.4177                                                     53.5641
                           417.1749                                                     53.1611
                           412.8359                                                     52.7899
                           408.7120                                                     52.3490
                           404.5654                                                     51.9045
                           400.3656                                                     51.4807
                           396.1926                                                     51.0407
                           391.9975                                                     50.6259
                           387.8200                                                     50.1996
                           383.5619                                                     49.7799
                           379.3423                                                     49.3772
                           375.0936                                                     48.9738
                           370.8063                                                     48.5721
                           366.5182                                                     48.1605
                           362.2559                                                     47.7582
                           357.9720                                                     47.3762
                           353.6776                                                     46.9849
                           349.3776                                                     46.6051
                           345.0843                                                     46.2171
                           340.7477                                                     45.8383
                           336.4161                                                     45.4536
                           332.0653                                                     45.0807
                           327.7299                                                     44.6984
                           323.3638                                                     44.3311
                           318.9925                                                     43.9713
                           314.6463                                                     43.6035
                           310.2499                                                     43.2397
                           305.8750                                                     42.8769
                           301.2616                                                     42.5912
                           296.8037                                                     42.2500
                           292.3873                                                     41.9047
                           287.9851                                                     41.5495
                           283.5595                                                     41.2046
                           279.1527                                                     40.8480
                           274.7128                                                     40.5012
                           270.2994                                                     40.1522
                           265.9073                                                     39.8063
                           261.4558                                                     39.4712
                           256.9910                                                     39.1362
                           252.5325                                                     38.7917
                           248.0788                                                     38.4551
                           243.6037                                                     38.1170
                           239.1163                                                     37.7799
                           234.6481                                                     37.4394
                           230.1541                                                     37.1072
                           225.6544                                                     36.7752
                           221.1629                                                     36.4379
                           216.6371                                                     36.1011
                           212.1108                                                     35.7724
                           207.5877                                                     35.4446
                           203.0696                                                     35.1116
                           198.5361                                                     34.7865
                           194.0200                                                     34.4569
                           189.4805                                                     34.1222
                           184.9230                                                     33.8045
                           180.4107                                                     33.4730
                           175.8534                                                     33.1447
                           171.2281                                                     32.8430
                           166.6203                                                     32.5371
                           161.9977                                                     32.2178
                           157.4708                                                     31.8844
                           152.8725                                                     31.5648
                           148.2941                                                     31.2367
                           143.7869                                                     30.9126
                           139.2168                                                     30.5783
                           134.6372                                                     30.2520
                           130.0750                                                     29.9227
                           125.5550                                                     29.5962
                           120.9973                                                     29.2618
                           116.4167                                                     28.9307
                           112.0555                                                     28.6086
                           107.7480                                                     28.2831
                           103.2896                                                     27.9505
                            98.7364                                                     27.6115
                            94.2585                                                     27.2747
                            89.7366                                                     26.9345
                            85.2045                                                     26.5785
                            80.8882                                                     26.2508
                            76.5464                                                     25.8999
                            72.1030                                                     25.5441
                            67.7406                                                     25.1849
                            63.3346                                                     24.8132
                            58.9953                                                     24.4383
                            54.7668                                                     24.0668
                            50.5262                                                     23.6757
                            46.2980                                                     23.2745
                            42.1540                                                     22.8570
                            38.0113                                                     22.4326
                            34.0153                                                     21.9849
